PT1,PT2,PT3,PT4,PT5,PT6,Time (ms),L1,L2,L3,L4,L5,L6
0.24412499368190765,0.23549999296665192,0.23637500405311584,0.2593750059604645,0.2621249854564667,0.2566249966621399,2201,292.4128709,292.2083639,292.2577999,292.0306076,292.2436142,292.1606918
0.25099998712539673,0.24012500047683716,0.23774999380111694,0.26225000619888306,0.26762500405311584,0.2592499852180481,2265,292.797084,292.4703904,292.335815,292.1938528,292.5556778,292.3079307
0.257999986,0.24662500619888306,0.242125005,0.2680000066757202,0.27149999141693115,0.2642500102519989,2325,293.1882831,292.8386435,292.5840472,292.5203432,292.7755393,292.5883885
0.2686249911785126,0.2551249861717224,0.24574999511241913,0.2747499942779541,0.2771250009536743,0.26787498593330383,2394,293.7820677,293.3202037,292.7897242,292.9036137,293.0946948,292.791718
0.2770000100135803,0.26249998807907104,0.2475000023841858,0.27900001406669617,0.2836250066757202,0.2747499942779541,2454,294.2501106,293.7380291,292.8890173,293.1449337,293.4634963,293.177346
0.28312501311302185,0.26899999380111694,0.24887500703334808,0.28437501192092896,0.28962498903274536,0.2788749933242798,2514,294.59241,294.1062822,292.9670332,293.4501311,293.8039272,293.4087225
0.29237499833106995,0.2759999930858612,0.2515000104904175,0.2887499928474426,0.2955000102519989,0.2865000069141388,2573,295.1093508,294.5028621,293.1159723,293.6985465,294.1372679,293.8364192
0.2998749911785126,0.2847500145435333,0.25312501192092896,0.29462501406669617,0.30149999260902405,0.2939999997615814,2633,295.5284924,294.9985882,293.2081727,294.0321357,294.4776988,294.2571034
0.3082500100135803,0.2928749918937683,0.2551249861717224,0.30149999260902405,0.3082500100135803,0.2992500066757202,2694,295.9965352,295.4589029,293.3216485,294.4225033,294.8606856,294.551583
0.3188750147819519,0.30162501335144043,0.25725001096725464,0.3070000112056732,0.3187499940395355,0.3089999854564667,2754,296.5903199,295.954629,293.4422195,294.7347994,295.4564405,295.0984718
0.32725000381469727,0.3109999895095825,0.25962498784065247,0.3137499988079071,0.3241249918937683,0.31812500953674316,2821,297.058361,296.4857615,293.5769725,295.11807,295.7614106,295.610306
0.3362500071525574,0.320250005,0.2616249918937683,0.31987500190734863,0.33024999499320984,0.32637500762939453,2881,297.5613315,297.0098144,293.69045,295.4658533,296.1089349,296.0730589
0.3466250002384186,0.328125,0.2632499933242798,0.3269999921321869,0.33762499690055847,0.33399999141693115,2947,298.1411441,297.4559665,293.7826504,295.8704168,296.5273825,296.500754
0.35600000619888306,0.3362500071525574,0.265625,0.33274999260902405,0.34575000405311584,0.3412500023841858,3006,298.6650719,297.9162829,293.9174051,296.1969072,296.9883844,296.9074164
0.3634999990463257,0.34450000524520874,0.2680000066757202,0.33937498927116394,0.3577499985694885,0.3526250123977661,3066,299.0842134,298.3836806,294.0521597,296.5730806,297.6692479,297.5454552
0.3786250054836273,0.3577499985694885,0.27425000071525574,0.35100001096725464,0.3631249964237213,0.3623749911785126,3167,299.9294833,299.1343494,294.4067759,297.2331601,297.974218,298.092344
0.3881250023841858,0.36662501096725464,0.2784999907016754,0.35837501287460327,0.3714999854564667,0.3707500100135803,3227,300.4603962,299.6371568,294.6479146,297.6519195,298.4494035,298.5621095
0.3987500071525574,0.37549999356269836,0.28325000405311584,0.3659999966621399,0.37937501072883606,0.3765000104904175,3295,301.0541808,300.1399625,294.9174239,298.0848731,298.8962218,298.8846344
0.4077500104904175,0.3831250071525574,0.2862499952316284,0.37312498688697815,0.3863750100135803,0.3843750059604645,3355,301.5571513,300.5719521,295.0876393,298.4894367,299.2933922,299.3263529
0.41574999690055847,0.39162498712539673,0.289249986,0.3804999887943268,0.39375001192092896,0.39137500524520874,3415,302.0042353,301.0535123,295.2578548,298.9081961,299.7118398,299.7189918
0.4271250069141388,0.40037500858306885,0.2930000126361847,0.3880000114440918,0.4022499918937683,0.3972499966621399,3479,302.6399344,301.5492384,295.4706262,299.3340543,300.1941172,300.0485276
0.4362500011920929,0.4077500104904175,0.29600000381469727,0.3958750069141388,0.40962499380111694,0.40700000524520874,3538,303.1498901,301.9670638,295.6408416,299.7812038,300.6125648,300.595418
0.44312500953674316,0.4163750112056732,0.2981249988079071,0.4032500088214874,0.4166249930858612,0.41475000977516174,3598,303.5341039,302.455707,295.761411,300.1999632,301.0097353,301.0301257
0.45249998569488525,0.42512500286102295,0.3023749887943268,0.4111250042915344,0.42649999260902405,0.4243749976158142,3661,304.05803,302.9514314,296.0025496,300.6471128,301.5700294,301.5700035
0.4621250033378601,0.4338749945163727,0.3059999942779541,0.41987499594688416,0.43537500500679016,0.429625005,3727,304.5959298,303.4471558,296.2082275,301.1439454,302.0735855,301.8644831
0.4727500081062317,0.4440000057220459,0.30912500619888306,0.4273749887943268,0.4442499876022339,0.4404999911785126,3788,305.1897144,304.020781,296.3855365,301.5698019,302.57714,302.474475
0.4803749918937683,0.45225000381469727,0.31025001406669617,0.4347499907016754,0.4517500102519989,0.4506250023841858,3849,305.6158411,304.4881787,296.4493679,301.9885613,303.0026811,303.0423998
0.48912501335144043,0.46012499928474426,0.3137499988079071,0.4426249861717224,0.46037501096725464,0.45649999380111694,3911,306.1048412,304.9343308,296.6479523,302.4357108,303.492052,303.3719356
0.49912500381469727,0.4698750078678131,0.3165000081062317,0.44987499713897705,0.4726249873638153,0.46650001406669617,3971,306.6636966,305.4867105,296.8039841,302.8473732,304.1870991,303.9328495
0.5057500004768372,0.47850000858306885,0.320374995,0.4580000042915344,0.47749999165534973,0.47612500190734863,4038,307.0339384,305.9753536,297.0238456,303.3087186,304.4637002,304.4727274
0.515250027,0.4878750145435333,0.3227500021457672,0.46412500739097595,0.48387500643730164,0.4856249988079071,4099,307.564853,306.5064878,297.1586003,303.6565019,304.8254099,305.0055943
0.5233749747276306,0.49424999952316284,0.32624998688697815,0.47087499499320984,0.4958750009536743,0.492374986,4158,308.0189205,306.867658,297.3571847,304.0397724,305.5062733,305.3842098
0.5306249856948853,0.5027499794960022,0.32987499237060547,0.4790000021457672,0.499875009,0.503000021,4224,308.4240916,307.3492182,297.5628626,304.5011179,305.7332284,305.9801815
0.5389999747276306,0.5109999775886536,0.3321250081062317,0.48524999618530273,0.5068749785423279,0.5108749866485596,4283,308.8921328,307.8166158,297.6905254,304.8559983,306.1303971,306.4218984
0.546500027,0.5174999833106995,0.33637499809265137,0.49162501096725464,0.5147500038146973,0.5151249766349792,4344,309.3112776,308.1848689,297.9316641,305.2179775,306.5772154,306.6602858
0.5558750033378601,0.5264999866485596,0.3398750126361847,0.4976249933242798,0.5206249952316284,0.5249999761581421,4404,309.8352037,308.6947576,298.1302502,305.5586621,306.9105545,307.2141871
0.5625,0.5327500104904175,0.34287500381469727,0.5051249861717224,0.5289999842643738,0.5322499871253967,4464,310.2054455,309.0488482,298.3004656,305.9845186,307.38574,307.6208495
0.5709999799728394,0.5385000109672546,0.3473750054836273,0.5133749842643738,0.5367500185966492,0.5406249761581421,4527,310.6804719,309.3746103,298.5557896,306.4529611,307.8254664,308.0906133
0.5802500247955322,0.5477499961853027,0.3504999876022339,0.5213750004768372,0.5443750023841858,0.5476250052452087,4596,311.1974161,309.8986615,298.7330968,306.9072094,308.2580977,308.4832539
0.5882499814033508,0.5558750033378601,0.3555000126361847,0.5296249985694885,0.5526250004768372,0.5558750033378601,4661,311.6444984,310.3589779,299.0167915,307.3756519,308.7261914,308.9460068
0.5982499718666077,0.5649999976158142,0.35899999737739563,0.5379999876022339,0.5612499713897705,0.5644999742507935,4730,312.2033538,310.8759478,299.2153759,307.8511915,309.2155606,309.4297924
0.6072499752044678,0.5726249814033508,0.3647499978542328,0.5451250076293945,0.5687500238418579,0.5723749995231628,4789,312.7063242,311.3079357,299.5416231,308.2557568,309.6411034,309.8715127
0.6137499809265137,0.581250012,0.3683750033378601,0.5531250238418579,0.5757499933242798,0.5809999704360962,4850,313.0695809,311.7965806,299.747301,308.7100051,310.0382721,310.3552983
0.6223750114440918,0.5889999866485596,0.37400001287460327,0.5608749985694885,0.5838750004768372,0.5878750085830688,4908,313.5515958,312.2356498,300.0664564,309.1500558,310.499274,310.740928
0.6294999718666077,0.5966249704360962,0.37825000286102295,0.5687500238418579,0.5916249752044678,0.5964999794960022,4969,313.9497784,312.6676377,300.3075951,309.597207,310.9389971,311.2247136
0.6381250023841858,0.6052500009536743,0.38350000977516174,0.5764999985694885,0.5993750095367432,0.6060000061988831,5030,314.4317933,313.1562826,300.6054734,310.0372577,311.3787235,311.7575822
0.6461250185966492,0.6132500171661377,0.38987499475479126,0.5849999785423279,0.609250009,0.612625003,5095,314.8788789,313.6095177,300.9671814,310.5198945,311.9390176,312.1291868
0.6549999713897705,0.6233749985694885,0.3948749899864197,0.5954999923706055,0.6178749799728394,0.6186249852180481,5154,315.3748609,314.1831412,301.2508743,311.1160949,312.4283868,312.4657334
0.6642500162124634,0.6315000057220459,0.40049999952316284,0.6003749966621399,0.6236249804496765,0.6321250200271606,5222,315.8918051,314.6434576,301.5700298,311.3929022,312.754634,313.2229676
0.6683750152587891,0.640250027,0.40537500381469727,0.6067500114440918,0.6301249861717224,0.6416249871253967,5282,316.1223331,315.1391837,301.8466309,311.7548814,313.1234356,313.7558329
0.6763749718666077,0.6462500095367432,0.4098750054836273,0.6146249771118164,0.6393749713897705,0.6462500095367432,5347,316.5694154,315.4791083,302.1019549,312.2020293,313.6482672,314.0152563
0.6855000257492065,0.6543750166893005,0.4163750112056732,0.6215000152587891,0.6455000042915344,0.6533750295639038,5408,317.0793744,315.9394247,302.4707564,312.5924003,313.9957932,314.4149078
0.6946250200271606,0.6636250019073486,0.42087501287460327,0.6276249885559082,0.653249979,0.6637499928474426,5469,317.5893301,316.4634759,302.7260804,312.9401819,314.4355163,314.9968527
0.6983749866485596,0.668624997,0.42649999260902405,0.6338750123977661,0.6587499976158142,0.668624997,5529,317.7988991,316.746747,303.0452341,313.295064,314.7475799,315.270298
0.7072499990463257,0.6756250262260437,0.4311249852180481,0.640874982,0.6658750176429749,0.6781250238418579,5588,318.2948844,317.1433286,303.3076499,313.6925288,315.1518439,315.8031666
0.7127500176429749,0.6827499866485596,0.43562498688697815,0.6476250290870667,0.671750009,0.6861249804496765,5648,318.6022562,317.5469881,303.5629739,314.0758027,315.4851829,316.2518944
0.7203750014305115,0.6899999976158142,0.44225001335144043,0.6543750166893005,0.6791250109672546,0.6948750019073486,5711,319.0283829,317.9577322,303.938869,314.4590732,315.9036306,316.7426943
0.7294999957084656,0.6976249814033508,0.4463750123977661,0.6602500081062317,0.687375009,0.7022500038146973,5779,319.5383386,318.3897201,304.1729158,314.7926607,316.3717243,317.1563675
0.7372499704360962,0.7048749923706055,0.45237499475479126,0.6678749918937683,0.6956250071525574,0.706125021,5844,319.9714505,318.8004643,304.5133467,315.2256143,316.839818,317.3737222
0.746749997,0.7170000076293945,0.45625001192092896,0.6735000014305115,0.703249991,0.7114999890327454,5903,320.5023651,319.4873982,304.7332099,315.5450075,317.2724492,317.675211
0.7570000290870667,0.7208750247955322,0.461124986,0.6818749904632568,0.7129999995231628,0.7242500185966492,5972,321.0751941,319.7069345,305.0098094,316.0205471,317.8256515,318.3903765
0.7606250047683716,0.7277500033378601,0.46412500739097595,0.6902499794960022,0.7181249856948853,0.7329999804496765,6032,321.277778,320.0964314,305.1800265,316.4960868,318.1164363,318.881173
0.7693750262260437,0.7357500195503235,0.46912500262260437,0.6978750228881836,0.7258750200271606,0.7425000071525574,6094,321.7667781,320.5496665,305.4637194,316.9290438,318.5561627,319.4140416
0.7777500152587891,0.7437499761581421,0.4727500081062317,0.7058749794960022,0.734125018,0.7505000233650208,6160,322.2348193,321.0028983,305.6693973,317.3832887,319.0242564,319.8627727
0.7858750224113464,0.7518749833106995,0.47749999165534973,0.7147499918937683,0.7432500123977661,0.7592499852180481,6228,322.6888901,321.4632147,305.938905,317.8872201,319.5419962,320.3535693
0.7954999804496765,0.7617499828338623,0.4807499945163727,0.7222499847412109,0.7515000104904175,0.7691249847412109,6295,323.2267866,322.0226756,306.1233057,318.3130766,320.0100899,320.9074706
0.8037499785423279,0.7714999914169312,0.4832499921321869,0.7306249737739563,0.7588750123977661,0.7801250219345093,6363,323.6878426,322.5750553,306.2651522,318.7886162,320.4285376,321.5244768
0.8111249804496765,0.7789999842643738,0.48875001072883606,0.7393749952316284,0.768875003,0.7832499742507935,6427,324.0999989,322.9999619,306.5772158,319.2854505,320.9959235,321.6997593
0.8205000162124634,0.7913749814033508,0.49125000834465027,0.7451249957084656,0.7777500152587891,0.7898749709129333,6488,324.6239283,323.7010584,306.7190623,319.6119409,321.4994796,322.0713638
0.8303750157356262,0.7975000143051147,0.4958750009536743,0.7546250224113464,0.7850000262260437,0.8047500252723694,6556,325.1757985,324.0480677,306.9814781,320.1513612,321.9108354,322.9057246
0.8352500200271606,0.8038750290870667,0.4975000023841858,0.7612500190734863,0.7908750176429749,0.8130000233650208,6615,325.4482409,324.4092396,307.0736785,320.5275346,322.2441745,323.3684776
0.8426250219345093,0.8115000128746033,0.5012500286102295,0.7697499990463257,0.7996249794960022,0.8218749761581421,6677,325.8603973,324.8412275,307.2864499,321.0101713,322.7406355,323.866285
0.8511250019073486,0.8207499980926514,0.5040000081062317,0.7767500281333923,0.8073750138282776,0.8306249976158142,6746,326.3354236,325.3652787,307.44248,321.4076395,323.1803619,324.3570849
0.8586249947547913,0.827875018,0.5082499980926514,0.7835000157356262,0.8148750066757202,0.8343750238418579,6811,326.7545652,325.7689415,307.6836187,321.79091,323.6059013,324.5674286
0.8683750033378601,0.8368750214576721,0.5118749737739563,0.7900000214576721,0.8230000138282776,0.8442500233650208,6872,327.2994501,326.2788302,307.8892949,322.1599863,324.0669032,325.12133
0.8742499947547913,0.843625009,0.5133749842643738,0.7960000038146973,0.828374982,0.8528749942779541,6932,327.6277775,326.6612459,307.9744034,322.5006709,324.3718716,325.6051156
0.8822500109672546,0.8504999876022339,0.518875003,0.8034999966621399,0.8362500071525574,0.8611249923706055,6995,328.0748631,327.0507428,308.286467,322.9265274,324.8186899,326.0678685
0.8901249766349792,0.8578749895095825,0.5227500200271606,0.8100000023841858,0.844124973,0.8644999861717224,7061,328.5149602,327.4685682,308.5063303,323.2956037,325.2655048,326.2571763
0.9007499814033508,0.8671249747276306,0.5264999866485596,0.8161249756813049,0.8537499904632568,0.8733749985694885,7122,329.1087448,327.9926194,308.7190983,323.6433854,325.8116152,326.754987
0.906624973,0.8741250038146973,0.5286250114440918,0.8222500085830688,0.8576250076293945,0.8831250071525574,7183,329.4370722,328.389201,308.8396693,323.9911704,326.0314785,327.3018775
0.9138749837875366,0.8813750147819519,0.5335000157356262,0.8305000066757202,0.8656250238418579,0.893625021,7244,329.8422433,328.7999451,309.1162704,324.4596129,326.4853885,327.8908367
0.922249973,0.8888750076293945,0.5377500057220459,0.8368750214576721,0.8742499947547913,0.9022499918937683,7311,330.3102845,329.2248517,309.3574091,324.8215921,326.9747577,328.3746223
0.9298750162124634,0.8989999890327454,0.5419999957084656,0.8445000052452087,0.8818749785423279,0.9041249752044678,7376,330.7364145,329.7984752,309.5985478,325.2545458,327.407389,328.4797925
0.9411249756813049,0.9081249833106995,0.5458750128746033,0.8508750200271606,0.8884999752044678,0.9176250100135803,7437,331.3651252,330.3154452,309.818411,325.616525,327.7832823,329.2370267
0.9447500109672546,0.9143750071525574,0.5479999780654907,0.8588749766349792,0.8949999809265137,0.9266250133514404,7497,331.5677124,330.6695357,309.9389787,326.0707699,328.1520838,329.7418484
0.9521250128746033,0.921999991,0.5532500147819519,0.8672500252723694,0.9042500257492065,0.9288750290870667,7561,331.9798687,331.1015237,310.2368586,326.5463129,328.6769188,329.8680546
0.9626250267028809,0.9319999814033508,0.5569999814033508,0.8740000128746033,0.9135000109672546,0.9430000185966492,7621,332.5666682,331.6680659,310.4496266,326.9295834,329.2017504,330.6603433
0.9673749804496765,0.940500021,0.5606250166893005,0.8794999718666077,0.918874979,0.9493749737739563,7680,332.8321221,332.1496294,310.6553062,327.2418762,329.5067188,331.0179227
0.9748749732971191,0.949874997,0.5644999742507935,0.8911250233650208,0.9296249747276306,0.9552500247955322,7739,333.2512636,332.6807619,310.8751661,327.9019574,330.116659,331.3474618
0.9794999957084656,0.953249991,0.5677499771118164,0.8947499990463257,0.9322500228881836,0.968500018,7797,333.5097357,332.8719697,311.0595668,328.1077868,330.2656007,332.0906709
0.9886249899864197,0.9605000019073486,0.5737500190734863,0.903249979,0.9402499794960022,0.9783750176429749,7861,334.0196914,333.2827139,311.4000011,328.5904235,330.7195074,332.6445722
0.9961249828338623,0.9692500233650208,0.5767499804496765,0.9101250171661377,0.9484999775886536,0.9838749766349792,7930,334.4388329,333.77844,311.5702148,328.9807946,331.1876011,332.9530719
1.0053750276565552,0.9777500033378601,0.5823749899864197,0.9164999723434448,0.9567499756813049,0.9929999709129333,7989,334.9557771,334.2600002,311.8893702,329.3427704,331.6556948,333.4649045
1.0110000371932983,0.9851250052452087,0.5846250057220459,0.9231250286102295,0.9617499709129333,1.000749945640564,8050,335.2701341,334.6778256,312.0170331,329.7189472,331.9393878,333.8996105
1.0178749561309814,0.9932500123977661,0.5883749723434448,0.9296249747276306,0.9682499766349792,1.0095000267028809,8113,335.654343,335.138142,312.2298011,330.0880202,332.3081893,334.3904137
1.0253750085830688,1,0.5946249961853027,0.9361249804496765,0.9767500162124634,1.0113749504089355,8177,336.0734878,335.5205576,312.584419,330.4570965,332.79047,334.4955806
1.0348750352859497,1.0106250047683716,0.5987499952316284,0.9421250224113464,0.9832500219345093,1.0230000019073486,8237,336.6044024,336.1225096,312.8184659,330.7977844,333.1592715,335.1476446
1.0410000085830688,1.0187499523162842,0.6028749942779541,0.9474999904632568,0.9894999861717224,1.0311249494552612,8298,336.9467001,336.5828226,313.0525127,331.1029801,333.513886,335.6033833
1.0497499704360962,1.0219999551773071,0.6079999804496765,0.9546250104904175,1.006500005722046,1.0361249446868896,8358,337.4356969,336.7669491,313.3432975,331.5075453,334.4784441,335.8838394
1.0546250343322754,1.0303750038146973,0.6127499938011169,0.9628750085830688,1.0081249475479126,1.0464999675750732,8424,337.7081427,337.2414314,313.6128068,331.9759878,334.5706411,336.4657877
1.063249945640564,1.0382499694824219,0.6151250004768372,0.968999982,1.012374997138977,1.0563750267028809,8484,338.190151,337.6875819,313.7475615,332.3237695,334.8117832,337.0196923
1.072124958,1.0444999933242798,0.6206250190734863,0.9739999771118164,1.0203750133514404,1.0628750324249268,8542,338.6861363,338.0416725,314.0596251,332.6076738,335.2656932,337.384286
1.0777499675750732,1.0532499551773071,0.6238750219345093,0.9800000190734863,1.027750015258789,1.0706249475479126,8602,339.0004932,338.5373952,314.2440258,332.9483617,335.6841409,337.8189886
1.0842499732971191,1.059999942779541,0.6292499899864197,0.9878749847412109,1.033750057220459,1.0762499570846558,8661,339.3637499,338.9198109,314.5489942,333.3955096,336.0245751,338.1345026
1.093500018119812,1.0701249837875366,0.6330000162124634,0.9928749799728394,1.0418750047683716,1.0870000123977661,8721,339.8806941,339.4934377,314.7617656,333.6794139,336.4855736,338.7374869
1.0991250276565552,1.0762499570846558,0.6355000138282776,0.9992499947547913,1.0484999418258667,1.0963749885559082,8782,340.1950511,339.8404437,314.9036121,334.0413931,336.8614636,339.2633413
