PT1,PT2,PT3,PT4,PT5,PT6,Time (ms),L1,L2,L3,L4,L5,L6
0.24549999833106995,0.2408750057220459,0.23887500166893005,0.27287501096725464,0.2711249887943268,0.26887500286102295,2829,292.4897139,292.5128814,292.3996464,292.7971504,292.7542622,292.8478102
0.2681249976158142,0.26475000381469727,0.26100000739097595,0.2952499985694885,0.2982499897480011,0.29899999499320984,2891,293.7541253,293.8655021,293.6549893,294.0676229,294.293298,294.5375595
0.2996250092983246,0.2913750112056732,0.28600001335144043,0.3191249966621399,0.3257499933242798,0.3257499933242798,2952,295.514522,295.3739226,295.0734557,295.4232673,295.8536109,296.0380011
0.33149999380111694,0.34450000524520874,0.33262500166893005,0.3605000078678131,0.37424999475479126,0.37162500619888306,3012,297.2958742,298.3836806,297.7188944,297.7725787,298.6054353,298.6111892
0.3852500021457672,0.3698750138282776,0.35850000381469727,0.3868750035762787,0.4021250009536743,0.39662501215934753,3116,300.2997251,299.8212833,299.1870069,299.2701753,300.1870254,300.0134714
0.4207499921321869,0.39937499165534973,0.38725000619888306,0.4153749942779541,0.4404999911785126,0.429874986,3179,302.2836629,301.4925832,300.8182431,300.8884311,302.3643703,301.8785049
0.45375001430511475,0.43062499165534973,0.414249986,0.44462499022483826,0.46775001287460327,0.46287500858306885,3245,304.1278886,303.2630293,302.3501854,302.5492729,303.9104996,303.7295183
0.4856249988079071,0.4598749876022339,0.4386250078678131,0.46875,0.49424999952316284,0.49000000953674316,3306,305.9092409,304.9201666,303.7331911,303.9191133,305.4140729,305.2509943
0.5162500143051147,0.4871250092983246,0.4663749933242798,0.4918749928474426,0.5226250290870667,0.5195000171661377,3364,307.6207379,306.4639968,305.3076876,305.2321717,307.0240337,306.9056874
0.5451250076293945,0.5146250128746033,0.492249995,0.5176249742507935,0.5494999885559082,0.5447499752044678,3424,309.2344339,308.0219896,306.7758002,306.6942795,308.5488824,308.3219898
0.577750027,0.5421249866485596,0.5198749899864197,0.5427500009536743,0.5862500071525574,0.5705000162124634,3485,311.0577023,309.5799807,308.3432049,308.1209017,310.6340287,309.7663425
0.609250009,0.5713750123977661,0.546999991,0.5736250281333923,0.6132500171661377,0.6023749709129333,3546,312.8180973,311.2371197,309.8822407,309.8740143,312.1659727,311.5542494
0.6422500014305115,0.6022499799728394,0.5717499852180481,0.6011250019073486,0.6414999961853027,0.6346250176429749,3607,314.6623213,312.9863186,311.2865219,311.4354882,313.7688382,313.3631957
0.6744999885559082,0.6338750123977661,0.5996249914169312,0.6283749938011169,0.6698750257492065,0.6657500267028809,3671,316.4646308,314.7780119,312.8681119,312.9827679,315.3787989,315.1090372
0.7058749794960022,0.6637499928474426,0.6301249861717224,0.6546249985694885,0.7003750205039978,0.6859999895095825,3735,318.2180407,316.4705572,314.5986403,314.4732674,317.1093273,316.2448835
0.7404999732971191,0.6921250224113464,0.6581249833106995,0.6793749928474426,0.7316250205039978,0.7170000076293945,3795,320.1530788,318.0781239,316.1873222,315.878595,318.8824099,317.9837141
0.7691249847412109,0.7200000286102295,0.6828749775886536,0.706125021,0.7607499957084656,0.7477499842643738,3856,321.7528044,319.6573622,317.5916033,317.3974863,320.5349216,319.7085195
0.8032500147819519,0.750124991,0.7103750109672546,0.7363749742507935,0.7948750257492065,0.7804999947547913,3920,323.6599018,321.3640701,319.151918,319.1151066,322.4711295,321.5455095
0.8374999761581421,0.7823749780654907,0.7407500147819519,0.7676249742507935,0.8242499828338623,0.812375009,3986,325.5739811,323.1911698,320.8753545,320.8895105,324.1378248,323.3334197
0.8728749752044678,0.8161249756813049,0.7680000066757202,0.7946249842643738,0.856124997,0.8388749957084656,4054,327.5509337,325.1032514,322.4214821,322.422596,325.9463699,324.8198378
0.9078750014305115,0.8471249938011169,0.7958750128746033,0.8159999847412109,0.8840000033378601,0.8577499985694885,4113,329.5069308,326.859535,324.0030722,323.6362883,327.52796,325.8785608
0.9412500262260437,0.8763750195503235,0.8258749842643738,0.8456249833106995,0.9144999980926514,0.8952500224113464,4177,331.3721137,328.516674,325.7052299,325.318423,329.2584884,327.9819851
0.9692500233650208,0.9046249985694885,0.8508750200271606,0.8737499713897705,0.9438750147819519,0.9278749823570251,4237,332.93691,330.1171561,327.1236981,326.9153859,330.925187,329.8119607
1.0021250247955322,0.9352499842643738,0.8807500004768372,0.9049999713897705,0.9746249914169312,0.9641249775886536,4301,334.7741488,331.8521924,328.818764,328.6897897,332.669899,331.8452693
1.0392500162124634,0.968999982,0.9082499742507935,0.9340000152587891,1.0083750486373901,0.9938750267028809,4370,336.8489008,333.7642741,330.3790752,330.336439,334.5848315,333.5139875
1.072124958,1.000499963760376,0.9391250014305115,0.9596250057220459,1.0388749837875366,1.015375018119812,4435,338.6861363,335.5488827,332.1308824,331.7914497,336.3153565,334.7199495
1.1074999570846558,1.0322500467300415,0.9668750166893005,0.9817500114440918,1.066499948501587,1.047374963760376,4495,340.6630889,337.3476606,333.7053807,333.0477279,337.8827596,336.5148673
1.1361249685287476,1.059749960899353,0.9913750290870667,1.0095000267028809,1.097499966621399,1.0785000324249268,4556,342.2628145,338.9056483,335.0954782,334.6233994,339.6416586,338.2607122
1.1679999828338623,1.0892499685287476,1.021625042,1.0394999980926514,1.1286250352859497,1.1011250019073486,4618,344.0441685,340.5769499,336.8118229,336.3268255,341.4076528,339.5297756
1.202875018119812,1.1221250295639038,1.0440000295639038,1.065500020980835,1.1553750038146973,1.1402499675750732,4678,345.9931803,342.4394626,338.0813494,337.8031308,342.9254097,341.7243449
1.2296249866485596,1.1505000591278076,1.0693750381469727,1.0941250324249268,1.184249997138977,1.169124960899353,4741,347.4881181,344.0470294,339.521093,339.4284854,344.5637377,343.3439801
1.2611249685287476,1.1782499551773071,1.1008750200271606,1.1204999685287476,1.2158750295639038,1.1974999904632568,4801,349.2485131,345.6191796,341.3083593,340.9260787,346.3580992,344.9355718
1.294374942779541,1.2089999914169312,1.1322499513626099,1.1464999914169312,1.2483750581741333,1.2188750505447388,4867,351.1067075,347.3613006,343.0885304,342.402384,348.2021068,346.1345262
1.3315000534057617,1.2419999837875366,1.158750057220459,1.1725000143051147,1.2771250009536743,1.2546249628067017,4927,353.1814661,349.2308913,344.5921105,343.8786893,349.8333396,348.1397844
1.3583749532699585,1.2675000429153442,1.1852500438690186,1.2021249532699585,1.306249976158142,1.2866250276565552,4986,354.6833857,350.6755786,346.0956838,345.5608207,351.4858512,349.9347089
1.393375039100647,1.3017499446868896,1.2106250524520874,1.2321250438690186,1.337249994277954,1.3126250505447388,5055,356.6393861,352.615982,347.5354274,347.2642536,353.2447502,351.3930834
1.4282499551773071,1.3297499418258667,1.2388750314712524,1.2576249837875366,1.3804999589920044,1.3380000591278076,5114,358.5883913,354.2023015,349.1382929,348.7121638,355.6986946,352.8164001
1.4572499990463257,1.3589999675750732,1.2701250314712524,1.2843749523162842,1.4006249904632568,1.3604999780654907,5180,360.2090759,355.8594405,350.9113756,350.2310517,356.8405616,354.0784493
1.4978749752044678,1.393625020980835,1.300125002861023,1.312250018119812,1.4336249828338623,1.4021250009536743,5245,362.4794266,357.8210978,352.6135333,351.8138237,358.7129365,356.41325
1.5230000019073486,1.4279999732971191,1.3255000114440918,1.3388750553131104,1.4588749408721924,1.4361250400543213,5307,363.8835535,359.7685858,354.0532769,353.3256179,360.1455849,358.3203556
1.5572500228881836,1.452375054359436,1.3535000085830688,1.3702499866485596,1.4888750314712524,1.452875018119812,5366,365.797636,361.1495384,355.6419588,355.1071155,361.8477494,359.2598832
1.5926250219345093,1.483625054359436,1.3793749809265137,1.3961249589920044,1.519124984741211,1.4916249513626099,5428,367.7745887,362.9199845,357.1100697,356.5763203,363.5640907,361.4334165
1.6177500486373901,1.5111249685287476,1.4023749828338623,1.422124981880188,1.547624945640564,1.516374945640564,5489,369.1787156,364.4779722,358.4150586,358.0526256,365.1811399,362.8216753
1.6507500410079956,1.5387500524520874,1.4341249465942383,1.4457499980926514,1.5774999856948853,1.5338749885559082,5548,371.0229396,366.0430513,360.2165085,359.3940759,366.8762092,363.803275
1.6876250505447388,1.5726250410079956,1.4642499685287476,1.4735000133514404,1.6076250076293945,1.578125,5612,373.0837212,367.9622142,361.9257614,360.9697474,368.5854621,366.2853147
1.7138750553131104,1.6011250019073486,1.4862500429153442,1.500249981880188,1.6336250305175781,1.6087499856948853,5673,374.5507182,369.5768588,363.1740158,362.4886353,370.0606681,368.0031092
1.7454999685287476,1.628999948501587,1.5167499780654907,1.5299999713897705,1.665874958,1.6419999599456787,5734,376.3180951,371.1560937,364.9045408,364.1778672,371.8904853,369.8681428
1.7788749933242798,1.660249948501587,1.5448750257492065,1.5606249570846558,1.6994999647140503,1.6593749523162842,5802,378.183278,372.9265398,366.5003179,365.9167822,373.7983226,370.8427283
1.8138749599456787,1.6927499771118164,1.5702500343322754,1.5852500200271606,1.730375051498413,1.6943750381469727,5862,380.1392717,374.7678054,367.9400615,367.315016,375.5501332,372.8059278
1.8387500047683716,1.7253750562667847,1.5971250534057617,1.6082500219345093,1.7567499876022339,1.7262500524520874,5922,381.5294282,376.6161556,369.4649137,368.6209774,377.0466114,374.5938381
1.8731249570846558,1.7498749494552612,1.6296249628067017,1.6382499933242798,1.7881250381469727,1.747249960899353,5987,383.4504927,378.0041793,371.3089145,370.3244035,378.8267892,375.7717497
1.9148750305175781,1.7827500104904175,1.6572500467300415,1.6662499904632568,1.8156249523162842,1.784500002861023,6046,385.7837201,379.866692,372.8763243,371.9142692,380.3870971,377.8611522
1.9373749494552612,1.809499979019165,1.6768749952316284,1.6936249732971191,1.8418749570846558,1.8142499923706055,6106,387.0411413,381.3821921,373.9898173,373.468646,381.8764868,379.5298671
1.969499945640564,1.8357499837875366,1.7072499990463257,1.7251249551773071,1.875499963760376,1.844249963760376,6167,388.8364656,382.8693671,375.7132539,375.2572441,383.7843241,381.2126038
2.0037500858306885,1.8692500591278076,1.7382500171661377,1.7516249418258667,1.909250020980835,1.8611249923706055,6235,390.7505549,384.7672896,377.4721529,376.7619378,385.6992566,382.1591457
2.039249897003174,1.9017499685287476,1.7660000324249268,1.775249958,1.9548749923706055,1.8963749408721924,6295,392.7344827,386.6085484,379.0466511,378.1033881,388.2879556,384.1363603
2.0677499771118164,1.9326250553131104,1.7978750467300415,1.8071249723434448,1.9733749628067017,1.934249997138977,6364,394.3272264,388.3577541,380.8551962,379.9132808,389.3376189,386.2608206
2.101375102996826,1.9641250371932983,1.819000005722046,1.8355000019073486,1.9976249933242798,1.965000033378601,6425,396.2063864,390.1423627,382.0537978,381.5244412,390.7135328,387.9856294
2.1337499618530273,1.9930000305175781,1.8441250324249268,1.8611249923706055,2.028125047683716,1.9733749628067017,6482,398.0156744,391.7782545,383.4793578,382.9794519,392.4440645,388.4553899
2.1711249351501465,2.024250030517578,1.8716249465942383,1.8904999494552612,2.0581250190734863,2.0172500610351562,6543,400.1043968,393.5487006,385.0396656,384.6473891,394.1462222,390.9164002
2.194124937057495,2.0512499809265137,1.8978749513626099,1.9162499904632568,2.086124897003174,2.050874948501587,6604,401.3897655,395.0783632,386.5290553,386.1095002,395.7348974,392.8024631
2.2284998893737793,2.082750082015991,1.9290000200271606,1.9423749446868896,2.1172499656677246,2.0828750133514404,6670,403.3108299,396.8629786,388.2950495,387.5928992,397.5008916,394.5973876
2.2634999752044678,2.114500045776367,1.9648749828338623,1.975250005722046,2.1483750343322754,2.0986249446868896,6735,405.2668303,398.6617498,390.3305463,389.4595756,399.2668858,395.4808213
2.304874897003174,2.1483750343322754,1.9884999990463257,2.0017499923706055,2.182499885559082,2.1388750076293945,6795,407.5790922,400.5809127,391.6709977,390.9642693,401.2030836,397.7384988
2.3217499256134033,2.174875020980835,2.009500026702881,2.028125047683716,2.206125020980835,2.1702499389648438,6855,408.5221631,402.0822503,392.8625108,392.4618693,402.5435418,399.4983587
2.3550000190734863,2.2042500972747803,2.0429999828338623,2.0557498931884766,2.2385001182556152,2.1989998817443848,6918,410.3803641,403.7464739,394.7632529,394.0304336,404.3804609,401.1109797
2.393749952316284,2.2396249771118164,2.068000078201294,2.084125042,2.269249916,2.234874963760376,6987,412.5459269,405.7506121,396.1817245,395.6416007,406.1251628,403.1232589
2.4291250705718994,2.2668750286102295,2.103749990463257,2.111375093460083,2.3187499046325684,2.2587499618530273,7047,414.5228862,407.294444,398.210126,397.1888838,408.933725,404.4624381
2.461124897003174,2.3022499084472656,2.1287500858306885,2.1410000324249268,2.350374937057495,2.2864999771118164,7116,416.3112154,409.2985822,399.6285976,398.8710153,410.7280865,406.0189718
2.489000082015991,2.3288750648498535,2.161375045776367,2.1747500896453857,2.366499900817871,2.3103749752044678,7181,417.8690365,410.8070111,401.4796936,400.7873747,411.6429951,407.358151
2.530250072479248,2.3712499141693115,2.183500051498413,2.203000068664551,2.392124891281128,2.352250099182129,7241,420.1743165,413.2077275,402.7350364,402.3914346,413.0969223,409.7069802
2.5582499504089355,2.3894999027252197,2.2138750553131104,2.227750062942505,2.4207499027252197,2.3681249618530273,7299,421.7391061,414.2416674,404.458473,403.7967621,414.7210667,410.5974215
2.5991249084472656,2.4232499599456787,2.243875026702881,2.2528750896453857,2.4512500762939453,2.4165000915527344,7364,424.0234272,416.1537524,406.1606307,405.2233844,416.4516052,413.3108443
2.618000030517578,2.4507501125335693,2.2639999389648438,2.281125068664551,2.476749897003174,2.4443750381469727,7424,425.0782745,417.7117536,407.302491,406.8274443,417.8984305,414.8743857
2.651124954223633,2.4774999618530273,2.2982499599456787,2.3096249103546143,2.509124994277954,2.4744999408721924,7485,426.9294804,419.2272469,409.2457907,408.4456916,419.7353496,416.5641299
2.6858749389648438,2.510124921798706,2.326124906539917,2.3426249027252197,2.5411250591278076,2.4872500896453857,7551,428.8715037,421.0755904,410.8273774,410.3194617,421.55099,417.279302
2.726875066757202,2.545375108718872,2.351749897003174,2.3661251068115234,2.569000005722046,2.5336248874664307,7611,431.16282,423.0726642,412.2813047,411.653825,423.1325766,419.8805237
2.7488749027252197,2.5693750381469727,2.3924999237060547,2.398750066757202,2.599375009536743,2.5486249923706055,7670,432.3922938,424.4323628,414.5934059,413.5063004,424.8560132,420.7218987
2.775749921798706,2.5996251106262207,2.4083750247955322,2.4186251163482666,2.630125045776367,2.593625068664551,7732,433.8942201,426.1461587,415.4941377,414.634824,426.6007286,423.2460105
2.8107500076293945,2.630500078201294,2.430875062942505,2.4452500343322754,2.655625104904175,2.618499994277954,7793,435.8502204,427.8953576,416.7707593,416.1466115,428.0475674,424.6412768
2.8421249389648438,2.659374952316284,2.456624984741211,2.477250099182129,2.6896250247955322,2.6422500610351562,7853,437.603627,429.5312427,418.231775,417.9636047,429.9766768,425.9734484
2.8787500858306885,2.690624952316284,2.4891250133514404,2.5042500495910645,2.718125104904175,2.6751248836517334,7913,439.6504448,431.3016887,420.0757826,419.4966869,431.5937327,427.8174392
2.9066250324249268,2.721750020980835,2.510124921798706,2.5301249027252197,2.744499921798706,2.706125020980835,7973,441.2082526,433.065057,421.2672889,420.9658849,433.0902041,429.5562765
2.940000057220459,2.7477500438690186,2.543874979019165,2.554500102996826,2.7744998931884766,2.715125084,8032,443.0734355,434.5380694,423.1822214,422.3499313,434.7923618,430.0611015
2.9751250743865967,2.782249927520752,2.5647499561309814,2.5789999961853027,2.7991249561309814,2.7652499675750732,8092,445.0364178,436.4926353,424.3666394,423.7410579,436.1895545,432.8726702
2.971250057220459,2.8026249408721924,2.597749948501587,2.6075000762939453,2.8315000534057617,2.782249927520752,8152,444.8198602,437.6469669,426.2390142,425.3593188,438.0264736,433.8262197
2.9821250438690186,2.8363749980926514,2.6227500438690186,2.6367499828338623,2.8610000610351562,2.818624973297119,8212,445.4276152,439.5590519,427.6574857,427.0201555,439.7002641,435.8665425
2.9796249866485596,2.8646249771118164,2.6449999809265137,2.666749954223633,2.8919999599456787,2.850749969482422,8272,445.287898,441.159534,428.919917,428.7235816,441.4591563,437.6684745
2.9800000190734863,2.896749973297119,2.6736249923706055,2.697000026702881,2.9214999675750732,2.8848750591278076,8337,445.308857,442.9795524,430.5440614,430.4412087,443.1329468,439.5825944
2.9769999980926514,2.9257500171661377,2.7143750190734863,2.724874973297119,2.9487500190734863,2.9066250324249268,8402,445.141199,444.6225289,432.8561627,432.0239739,444.6790778,440.8025782
2.9736249446868896,2.950500011444092,2.739375114440918,2.7496249675750732,2.962125062942505,2.927999973297119,8461,444.9525822,446.0247218,434.2746342,433.4293014,445.4379596,442.0015259
2.9703750610351562,2.946500062942505,2.777250051498413,2.7876250743865967,2.9560000896453857,2.950000047683716,8526,444.7709605,445.7981077,436.4236068,435.5869826,445.090437,443.2355382
2.989875078201294,2.9341249465942383,2.7987499237060547,2.813499927520752,2.9523749351501465,2.9825000762939453,8596,445.8607304,445.0970044,437.6434804,437.0561807,444.8847506,445.0585063
2.9796249866485596,2.9311249256134033,2.8187499046325684,2.8428750038146973,2.9560000896453857,2.987499952316284,8659,445.287898,444.9270404,438.7782522,438.7241247,445.090437,445.3389557
2.979249954223633,2.9377501010894775,2.8550000190734863,2.8768749237060547,2.9623749256134033,2.9690001010894775,8716,445.2669391,445.3023849,440.8350346,440.6546715,445.4521365,444.3012755
2.972249984741211,2.932874917984009,2.875499963760376,2.891624927520752,2.9517500400543213,2.9877500534057617,8775,444.8757417,445.0261849,441.9981737,441.4921904,444.8492949,445.3529842
2.976249933242798,2.9311249256134033,2.9014999866485596,2.9206249713897705,2.9552500247955322,2.991874933242798,8839,445.0992812,444.9270404,443.4733797,443.1388397,445.0478793,445.584354
2.9820001125335693,2.9357500076293945,2.926875114440918,2.9448750019073486,2.957124948501587,2.984499931335449,8898,445.4206334,445.1890711,444.9131301,444.5157788,445.1542599,445.1706807
2.9756250381469727,2.9276249408721924,2.925374984741211,2.954624891281128,2.965625047683716,2.9790000915527344,8959,445.0643586,444.7287513,444.8280148,445.0693865,445.636544,444.8621877
2.9862499237060547,2.9341249465942383,2.937624931335449,2.961250066757202,2.9544999599456787,2.984499931335449,9019,445.6581366,445.0970044,445.5230601,445.4455701,445.0053216,445.1706807
2.976749897003174,2.9311249256134033,2.9230000972747803,2.950500011444092,2.9595000743865967,2.9877500534057617,9085,445.127222,444.9270404,444.6932669,444.835172,445.2890213,445.3529842
2.977250099182129,2.9291250705718994,2.9282500743865967,2.9548749923706055,2.955125093460083,2.967250108718872,9152,445.1551761,444.8137401,444.9911435,445.0835875,445.0407909,444.2031161
2.991874933242798,2.9366250038146973,2.928999900817871,2.9509999752044678,2.955125093460083,2.9887499809265137,9211,445.9724935,445.2386433,445.0336876,444.8635604,445.0407909,445.4090714
2.9826250076293945,2.9367499351501465,2.9260001182556152,2.946624994277954,2.958625078201294,2.991374969482422,9271,445.455556,445.2457212,444.863484,444.615145,445.2393752,445.5563104
2.978749990463257,2.932499885559082,2.924875020980835,2.9493749141693115,2.956624984741211,2.9881250858306885,9336,445.2389984,445.0049378,444.7996475,444.771288,445.1258927,445.3740203
2.9781250953674316,2.927875042,2.9277501106262207,2.9544999599456787,2.9553749561309814,2.96875,9402,445.2040757,444.7429206,444.9627762,445.0622928,445.0549677,444.287247
