PT1,PT2,PT3,PT4,PT5,PT6,Time (ms),L1,L2,L3,L4,L5,L6
0.2436250001192093,0.23800000548362732,0.23800000548362732,0.26387500762939453,0.2626250088214874,0.2567499876022339,1908,292.3849285,292.3500003,292.3500003,292.2861219,292.2719849,292.1677027
0.2472500056028366,0.24112500250339508,0.23862500488758087,0.27024999260902405,0.27399998903274536,0.2706249952316284,1971,292.5875141,292.5270448,292.3854619,292.6480994,292.9173858,292.9459696
0.26787498593330383,0.2601250112056732,0.2563750147819519,0.28850001096725464,0.2982499897480011,0.29475000500679016,2042,293.7401532,293.6034765,293.3925734,293.6843523,294.293298,294.2991722
0.29487499594688416,0.2865000069141388,0.2784999907016754,0.3108749985694885,0.32487499713897705,0.32199999690055847,2108,295.2490647,295.0977327,294.6479146,294.9548248,295.8039648,295.827659
0.3244999945163727,0.31462499499320984,0.30250000953674316,0.3318749964237213,0.3449999988079071,0.34599998593330383,2174,296.9046752,296.6911335,296.0096431,296.1472241,296.9458302,297.173849
0.35225000977516174,0.34037500619888306,0.3240000009536743,0.35199999809265137,0.36800000071525574,0.3686249852180481,2234,298.4555011,298.1499818,297.2295235,297.2899403,298.2508191,298.4429142
0.37937501072883606,0.36512500047683716,0.3478749990463257,0.37287500500679016,0.39125001430511475,0.3877499997615814,2293,299.9713977,299.5521747,298.5841585,298.4752425,299.5699934,299.5156606
0.4098750054836273,0.3918749988079071,0.3714999854564667,0.39537501335144043,0.4233750104904175,0.413875014,2357,301.6759079,301.0676765,299.9246083,299.7528137,301.3927221,300.981046
0.437375009,0.4180000126361847,0.3955000042915344,0.4188750088214874,0.445499986,0.4398750066757202,2422,303.2127618,302.5477702,301.2863368,301.0871652,302.6480633,302.4394189
0.46437498927116394,0.4441249966621399,0.4167500138282776,0.44062501192092896,0.46962499618530273,0.4652499854564667,2483,304.7216716,304.0278623,302.4920335,302.3221505,304.0168836,303.8627338
0.492000014,0.4698750078678131,0.4399999976158142,0.46149998903274536,0.49300000071525574,0.4908750057220459,2541,306.2655123,305.4867105,303.8112061,303.5074509,305.3431497,305.3000739
0.5167499780654907,0.4936249852180481,0.461124986,0.48100000619888306,0.515375018,0.515749991,2601,307.6486786,306.8322482,305.0098094,304.6146799,306.6126779,306.6953436
0.543874979,0.5184999704360962,0.48649999499320984,0.5009999871253967,0.5400000214576721,0.5394999980926514,2663,309.1645753,308.2415225,306.449553,305.7502973,308.0098672,308.0275119
0.5736250281333923,0.5447499752044678,0.5121250152587891,0.5242499709129333,0.5669999718666077,0.5584999918937683,2729,310.8271743,309.7286975,307.9034819,307.0704529,309.5418078,309.0932458
0.6043750047683716,0.5718749761581421,0.534375012,0.546625018,0.6008750200271606,0.5852500200271606,2790,312.5456548,311.2654447,309.1659165,308.3409287,311.4638321,310.593689
0.6299999952316284,0.5993750095367432,0.5572500228881836,0.5722500085830688,0.621749997,0.6133750081062317,2856,313.9777225,312.8234392,310.4638137,309.7959394,312.64825,312.1712555
0.6571249961853027,0.6257500052452087,0.578249991,0.5946249961853027,0.6445000171661377,0.6416249871253967,2916,315.4936191,314.3176955,311.6553234,311.0664119,313.9390553,313.7558329
0.684249997,0.6526250243186951,0.6047499775886536,0.6183750033378601,0.6692500114440918,0.6628749966621399,2981,317.0095158,315.8402802,313.1588967,312.4149592,315.3433365,314.9477731
0.7136250138282776,0.6781250238418579,0.6290000081062317,0.6372500061988831,0.6919999718666077,0.687250018,3042,318.6511559,317.2849642,314.5348106,313.4866993,316.6341384,316.3149992
0.7382500171661377,0.7018749713897705,0.6495000123977661,0.65625,0.7164999842643738,0.7096250057220459,3102,320.0273387,318.6305002,315.697953,314.5655365,318.0242359,317.5700408
0.765500009,0.7536249756813049,0.6937500238418579,0.6946250200271606,0.7628750205039978,0.7461249828338623,3163,321.5502205,321.5623592,318.2086387,316.7445056,320.6554926,319.6173711
0.8113750219345093,0.7721250057220459,0.7113749980926514,0.7162500023841858,0.7862499952316284,0.7777500152587891,3270,324.1139726,322.610465,319.2086559,317.9723921,321.981757,321.3912596
0.8393750190734863,0.7973750233650208,0.7357500195503235,0.7398750185966492,0.8115000128746033,0.8040000200271606,3330,325.6787689,324.0409865,320.5916616,319.3138423,323.4144088,322.8636559
0.8702499866485596,0.8266249895095825,0.7602499723434448,0.7651249766349792,0.8376250267028809,0.8328750133514404,3398,327.4042347,325.6981221,321.9817557,320.7475583,324.8967067,324.4832911
0.9012500047683716,0.856124997,0.7853749990463257,0.7878749966621399,0.8637499809265137,0.8557500243186951,3467,329.1366889,327.3694236,323.4073157,322.0393254,326.3790012,325.7663797
0.9304999709129333,0.8812500238418579,0.8102499842643738,0.8072500228881836,0.887624979,0.8759999871253967,3526,330.7713405,328.7928638,324.8186886,323.1394573,327.7336362,326.902226
0.9558749794960022,0.9073749780654907,0.8307499885559082,0.8264999985694885,0.9126250147819519,0.9020000100135803,3586,332.1894378,330.2729541,325.9818311,324.2324887,329.1521043,328.3606005
0.9815000295639038,0.9325000047683716,0.8557500243186951,0.8478749990463257,0.9369999766349792,0.9202499985694885,3645,333.6215088,331.6963943,327.4002992,325.446181,330.5351066,329.3842657
1.012125015258789,0.9605000019073486,0.8784999847412109,0.8713750243186951,0.9617499709129333,0.9538750052452087,3707,335.3330042,333.2827139,328.6911011,326.7805342,331.9393878,331.2703352
1.0343749523162842,0.9856250286102295,0.8985000252723694,0.893625021,0.9832500219345093,0.9792500138282776,3767,336.576455,334.706154,329.8258763,328.0439095,333.1592715,332.6936519
1.0644999742507935,1.012624979019165,0.9204999804496765,0.9120000004768372,1.0083750486373901,0.9921249747276306,3826,338.2600096,336.2358167,331.074124,329.0872579,334.5848315,333.4158249
1.0931249856948853,1.0388749837875366,0.9465000033378601,0.9363750219345093,1.031749963760376,1.027250051498413,3890,339.8597352,337.7229916,332.54933,330.4712941,335.9110925,335.3860353
1.1174999475479126,1.062999963760376,0.9670000076293945,0.9556249976158142,1.0567500591278076,1.050624966621399,3949,341.2219443,339.0897749,333.7124725,331.5643255,337.329564,336.6971641
1.1452499628067017,1.0893750190734863,0.9937499761581421,0.9775000214576721,1.0832500457763672,1.0691250562667847,4013,342.7727702,340.5840345,335.2302295,332.8064096,338.8331374,337.7348578
1.1755000352859497,1.1180000305175781,1.0164999961853027,0.9977499842643738,1.1087499856948853,1.1026250123977661,4074,344.4633133,342.2057638,336.5210348,333.9562212,340.2799694,339.6139131
1.1970000267028809,1.1428749561309814,1.0348750352859497,1.0192500352859497,1.1308749914169312,1.1297500133514404,4134,345.664853,343.6150347,337.5636096,335.1770139,341.5353122,341.135389
1.2237499952316284,1.1679999828338623,1.0606249570846558,1.043874979019165,1.15625,1.1568750143051147,4197,347.1597907,345.0384749,339.0246253,336.575241,342.9750558,342.656865
1.2556250095367432,1.1974999904632568,1.0828750133514404,1.069000005722046,1.1827499866485596,1.178125023841858,4266,348.9411446,346.7097764,340.2870633,338.0018632,344.4786292,343.8488052
1.284000039100647,1.2223750352859497,1.1082500219345093,1.0892499685287476,1.2065000534057617,1.2017500400543213,4324,350.5268999,348.119054,341.7268069,339.1516748,345.8261758,345.1739625
1.3070000410079956,1.2473750114440918,1.131250023841858,1.109375,1.230875015258789,1.2256250381469727,4384,351.8122685,349.5354096,343.0317958,340.2943927,347.2091781,346.5131416
1.3357499837875366,1.2761249542236328,1.1548750400543213,1.1261249780654907,1.2571250200271606,1.2401249408721924,4443,353.418976,351.1642167,344.3722472,341.2454719,348.6985678,347.3264597
1.365875005722046,1.2999999523162842,1.1806249618530273,1.1498750448226929,1.2829999923706055,1.2773749828338623,4508,355.1025306,352.5168374,345.8332629,342.5940227,350.1666786,349.4158621
1.3899999856948853,1.324625015258789,1.1983749866485596,1.172624945640564,1.302875042,1.3041249513626099,4568,356.4507693,353.9119525,346.8403753,343.8857831,351.294362,350.916302
1.417875051498413,1.3489999771118164,1.2238750457763672,1.1964999437332153,1.3282500505447388,1.3315000534057617,4630,358.0085837,355.2928983,348.2872141,345.2414275,352.7341056,352.4518065
1.4479999542236328,1.3798749446868896,1.246749997138977,1.2204999923706055,1.3554999828338623,1.3546249866485596,4698,359.6921317,357.0420972,349.5851078,346.6041724,354.2802299,353.7489135
1.4761250019073486,1.4063750505447388,1.2769999504089355,1.2453750371932983,1.3825000524520874,1.3730000257492065,4764,361.2639165,358.5434415,351.3014492,348.0166005,355.8121772,354.7795929
1.5080000162124634,1.4356249570846558,1.300624966621399,1.265125036239624,1.4108749628067017,1.4017499685287476,4824,363.0452704,360.2005738,352.6419006,349.1380237,357.4221312,356.3922139
1.5297499895095825,1.4600000381469727,1.3194999694824219,1.2860000133514404,1.4305000305175781,1.4279999732971191,4885,364.2607805,361.5815263,353.7128426,350.3233242,358.5356309,357.8646102
1.5596250295639038,1.4835000038146973,1.3456250429153442,1.3044999837875366,1.4552500247955322,1.4562499523162842,4944,365.9303647,362.9128998,355.1951439,351.3737696,359.9399121,359.4491876
1.582124948501587,1.5087499618530273,1.3645000457763672,1.3265000581741333,1.478124976158142,1.477874994277954,5004,367.1877859,364.3434179,356.266086,352.6229541,361.2378058,360.6621638
1.608875036239624,1.5322500467300415,1.3895000219345093,1.3489999771118164,1.4998749494552612,1.4957499504089355,5064,368.6827303,365.6747982,357.6845508,353.9005203,362.4718698,361.6647929
1.6386250257492065,1.5612499713897705,1.4107500314712524,1.3703750371932983,1.5251250267028809,1.5230000019073486,5124,370.345326,367.3177679,358.8902475,355.114216,363.904525,363.1932831
1.6634999513626099,1.5852500200271606,1.4320000410079956,1.394374966621399,1.5481250286102295,1.5478750467300415,5184,371.7354758,368.6774733,360.0959442,356.4769541,365.2095139,364.5885562
1.6918749809265137,1.6092499494552612,1.4594999551773071,1.4151250123977661,1.5873750448226929,1.5697499513626099,5243,373.3212311,370.0371719,361.6562521,357.6551609,367.4365066,365.8155475
1.7143750190734863,1.636625051498413,1.4827500581741333,1.4368749856948853,1.6138750314712524,1.5988750457763672,5308,374.5786589,371.5880884,362.9754314,358.8901445,368.94008,367.4492113
1.7438750267028809,1.6632499694824219,1.5077500343322754,1.4583749771118164,1.6272499561309814,1.6292500495910645,5374,376.2272842,373.0965038,364.3938962,360.1109339,369.6989551,369.152984
1.7704999446868896,1.6901249885559082,1.5257500410079956,1.4792499542236328,1.6506249904632568,1.6493749618530273,5434,377.7152334,374.6190886,365.4151922,361.2962344,371.0252228,370.281816
1.8023749589920044,1.715749979019165,1.5529999732971191,1.502500057220459,1.674875020980835,1.6662499904632568,5494,379.4965874,376.0708538,366.9613164,362.6163967,372.4011367,371.2283579
1.8322499990463257,1.7456250190734863,1.574625015258789,1.5238749980926514,1.6988749504089355,1.7020000219345093,5557,381.1661716,377.7634026,368.188292,363.8300856,373.7628602,373.2336229
1.8516249656677246,1.7697499990463257,1.5953749418258667,1.5487500429153442,1.7206250429153442,1.7288750410079956,5618,382.248953,379.1301858,369.3656147,365.2425136,374.996931,374.741077
1.8819999694824219,1.7957500219345093,1.6216249465942383,1.571874976158142,1.749500036239624,1.7581249475479126,5682,383.9464779,380.6031983,370.8550044,366.5555687,376.6352589,376.3817416
1.9093749523162842,1.8208750486373901,1.6491249799728394,1.5941250324249268,1.7778749465942383,1.7713749408721924,5747,385.476345,382.0266384,372.415319,367.8189474,378.2452129,377.1249507
1.9462499618530273,1.8542499542236328,1.6744999885559082,1.6119999885559082,1.8047499656677246,1.7987500429153442,5809,387.5371266,383.9174695,373.8550626,368.833904,379.7700651,378.6604551
1.9757499694824219,1.878499984741211,1.6982500553131104,1.636625051498413,1.8289999961853027,1.8277499675750732,5879,389.1857519,385.2913374,375.2026092,370.2321378,381.1459789,380.2870979
1.993499994277954,1.9205000400543213,1.7236249446868896,1.6651250123977661,1.858625054359436,1.847000002861023,5938,390.1777225,387.6708201,376.6423461,371.8503919,382.8268646,381.366857
2.0371251106262207,1.934999942779541,1.7493749856948853,1.6896250247955322,1.878749966621399,1.8726249933242798,6011,392.6157378,388.4923016,378.1033685,373.2415253,383.9687248,382.8041954
2.062999963760376,1.9618749618530273,1.7731250524520874,1.7123750448226929,1.9225000143051147,1.9088749885559082,6075,394.0617692,390.0148863,379.4509151,374.5332924,386.4510433,384.837504
2.0824999809265137,1.9863749742507935,1.7983750104904175,1.7367500066757202,1.928375005722046,1.9422500133514404,6141,395.1515391,391.4029168,380.8835635,375.9173253,386.7843823,386.7095517
2.1137499809265137,2.015125036239624,1.816499948501587,1.7561249732971191,1.9529999494552612,1.965250015258789,6201,396.8979637,393.0317307,381.9119479,377.0174538,388.1815682,387.9996512
2.140625,2.0390000343322754,1.8452500104904175,1.7751250267028809,1.9788750410079956,1.9773750305175781,6260,398.39989,394.3843514,383.5431875,378.0962944,389.6496859,388.6797588
2.1766250133514404,2.076625108718872,1.8657499551773071,1.8029999732971191,2.0058751106262207,1.9993749856948853,6322,400.4117719,396.5159727,384.7063266,379.6790596,391.1816332,389.9137644
2.202625036239624,2.105750084,1.894374966621399,1.8222500085830688,2.034749984741211,2.035249948501587,6391,401.8647985,398.1660271,386.3304709,380.7720944,392.8199545,391.9260369
2.2366249561309814,2.1272499561309814,1.917875051498413,1.8489999771118164,2.0597500801086426,2.0652499198913574,6461,403.764904,399.3840867,387.6638339,382.2909823,394.238426,393.6087736
2.2496249675750732,2.1671249866485596,1.953374981880188,1.874750018119812,2.0975000858306885,2.093874931335449,6520,404.4914173,401.6431777,389.6780518,383.7530934,396.3803102,395.214387
2.2804999351501465,2.179874897003174,1.9716249704360962,1.9017499685287476,2.101375102996826,2.1267499923706055,6592,406.2168831,402.3655146,390.7135315,385.2861756,396.6001734,397.0583912
2.311875104904175,2.2138750553131104,1.9911249876022339,1.925374984741211,2.1293749809265137,2.1423749923706055,6654,407.9703029,404.2917689,391.819936,386.6276258,398.1888485,397.9348174
2.3405001163482666,2.231374979019165,2.0225000381469727,1.9524999856948853,2.156125068664551,2.176875114440918,6713,409.5700285,405.2832144,393.6001139,388.1678084,399.7066122,399.8699733
2.375124931335449,2.267625093460083,2.0380001068115234,1.9758750200271606,2.1866250038146973,2.1938750743865967,6784,411.5050567,407.3369384,394.4795667,389.4950645,401.4371372,400.8235228
2.4045000076293945,2.2955000400543213,2.070625066757202,2.0008749961853027,2.219374895095825,2.236875057220459,6846,413.1467001,408.9161733,396.3306628,390.9145862,403.2953217,403.2354467
2.4271249771118164,2.315000057220459,2.0918750762939453,2.020750045776367,2.233375072479248,2.2491250038146973,6913,414.4111098,410.0209326,397.5363595,392.0431099,404.0896728,403.9225619
2.463624954223633,2.3433749675750732,2.1166250705718994,2.0399999618530273,2.255625009536743,2.286750078201294,6975,416.4509325,411.6284926,398.9406406,393.1361379,405.352104,406.0330003
2.4822499752044678,2.3687500953674316,2.134000062942505,2.0632500648498535,2.2774999141693115,2.313999891281128,7036,417.4918028,413.0661021,399.9264742,394.4563003,406.5932565,407.5614772
2.5107500553131104,2.3938748836517334,2.160875082015991,2.0834999084472656,2.3006250858306885,2.322000026702881,7095,419.0845465,414.4895287,401.4513263,395.6061051,407.9053474,408.010215
2.540750026702881,2.427500009536743,2.1821250915527344,2.1015000343322754,2.3192501068115234,2.359999895095825,7155,420.7611126,416.3945359,402.6570231,396.6281689,408.9621058,410.1416761
2.563499927520752,2.446125030517578,2.2009999752044678,2.124375104904175,2.3499999046325684,2.3803749084472656,7216,422.0325042,417.4497229,403.7279584,397.9270365,410.7068077,411.2845366
2.5946249961853027,2.4703750610351562,2.228874921798706,2.148624897003174,2.3923749923706055,2.4021248817443848,7274,423.771947,418.8235908,405.3095451,399.3039621,413.1111127,412.5045204
2.612874984741211,2.496375084,2.2547500133514404,2.174499988555908,2.398750066757202,2.4362499713897705,7340,424.7918583,420.2966033,406.7776627,400.7731737,413.4728258,414.4186403
2.6443750858306885,2.5233750343322754,2.2743749618530273,2.197499990463257,2.4196250438690186,2.460124969482422,7400,426.55226,421.8262659,407.8911557,402.0791351,414.6572437,415.7578194
2.6732499599456787,2.5482499599456787,2.3037500381469727,2.221874952316284,2.4427499771118164,2.4877500534057617,7465,428.1659494,423.2355368,409.5578577,403.4631679,415.9693211,417.3073457
2.7017500400543213,2.5789999961853027,2.322499990463257,2.243499994277954,2.4746251106262207,2.505625009536743,7532,429.7586931,424.9776578,410.6217046,404.6910578,417.777873,418.3099748
2.7360000610351562,2.6066250801086426,2.3516249656677246,2.2637500762939453,2.497499942779541,2.523124933242798,7592,431.6727757,426.5427369,412.2742162,405.8408762,419.07576,419.2915678
2.762624979019165,2.638124942779541,2.371000051498413,2.2860000133514404,2.5172500610351562,2.568000078201294,7652,433.1607249,428.3273388,413.3735323,407.1042482,420.1963549,421.808672
2.7834999561309814,2.6565001010894775,2.3928749561309814,2.311500072479248,2.5416250228881836,2.59375,7716,434.3273353,429.36837,414.6146848,408.5521651,421.5793572,423.253018
2.815999984741211,2.681999921798706,2.4256250858306885,2.338749885559082,2.566999912261963,2.6192500591278076,7780,436.1436185,430.8130439,416.4728828,410.0994346,423.0190941,424.6833489
2.8418750762939453,2.7114999294281006,2.451625108718872,2.3606250286102295,2.594249963760376,2.631124973297119,7848,437.5896632,432.4843454,417.9480888,411.3415255,424.565225,425.349428
2.8807499408721924,2.7436249256134033,2.4739999771118164,2.3828749656677246,2.6211249828338623,2.6635000705718994,7907,439.7622079,434.3043638,419.2176085,412.6048975,426.0900772,427.1653886
2.899125099182129,2.765749931335449,2.4906249046325684,2.4046249389648438,2.6402499675750732,2.700624942779541,7969,440.7891145,435.55784,420.1608844,413.839881,427.1752029,429.2477701
2.934000015258789,2.7955000400543213,2.5173749923706055,2.4196250438690186,2.671250104904175,2.697624921798706,8028,442.7381197,437.2433108,421.6786481,414.6916009,428.9341087,429.0794951
2.961625099182129,2.818624973297119,2.5416250228881836,2.4478750228881836,2.693000078201294,2.745374917984009,8089,444.2819637,438.5534371,423.054562,416.2956608,430.1681727,431.7578533
2.9646248817443848,2.841125011444092,2.5613749027252197,2.4728751182556152,2.7130000591278076,2.7744998931884766,8149,444.4496084,439.8281605,424.1751434,417.7151893,431.3029445,433.3915104
2.9671249389648438,2.865375042,2.593874931335449,2.496500015258789,2.7391250133514404,2.7808749675750732,8213,444.5893255,441.2020284,426.019151,419.0566328,432.785239,433.7490965
2.9741249084472656,2.897249937057495,2.615875005722046,2.518249988555908,2.7642500400543213,2.8163750171661377,8274,444.9805229,443.0078775,427.2674054,420.2916163,434.210799,435.7403396
2.965625047683716,2.9170000553131104,2.633125066757202,2.5390000343322754,2.783750057220459,2.846750020980835,8334,444.5055032,444.1268061,428.2461505,421.4698231,435.3172035,437.4441123
2.9684998989105225,2.9262499809265137,2.662750005722046,2.565500020980835,2.8121249675750732,2.875499963760376,8398,444.666166,444.6508539,429.9270294,422.9745168,436.9271575,439.0567333
2.967250108718872,2.9321250915527344,2.6846249103546143,2.585124969482422,2.836750030517578,2.9038751125335693,8466,444.5963207,444.9837041,431.1681818,424.0888395,438.3243502,440.6483317
2.9676249027252197,2.9287500381469727,2.716749906539917,2.6107499599456787,2.8646249771118164,2.9144999980926514,8530,444.6172663,444.7924929,432.9909106,425.5438502,439.9059369,441.2442951
